Wavelength (nm),Intensity (a.u.)
400.0,-8.214841656650377
401.0033444816053,-4.500751645586875
402.0066889632107,-7.838813460779919
403.01003344481603,-3.8306117306192835
404.0133779264214,-5.883875304286111
405.01672240802674,0.02439762291872084
406.0200668896321,9.870062039759484
407.02341137123744,0.2266451641851892
408.0267558528428,1.2419676369792618
409.03010033444815,-9.339688923377985
410.03344481605353,-5.441040910094032
411.03678929765886,3.413843684365016
412.04013377926424,-0.2841026993605157
413.04347826086956,0.39221341345618477
414.0468227424749,4.2881210640678935
415.05016722408027,-9.753055585671685
416.0535117056856,-0.42893565220694074
417.056856187291,-6.6591505414925765
418.0602006688963,-9.910290085211063
419.0635451505017,2.381838578247376
420.066889632107,2.0671592027887655
421.0702341137124,5.6623559516717235
422.0735785953177,-0.6895991366579863
423.0769230769231,-2.0185863908536525
424.0802675585284,-4.371659127963037
425.0836120401338,1.396461168250968
426.0869565217391,5.517696975612582
427.0903010033445,6.003158648848533
428.09364548494983,4.5811674587663855
429.09698996655516,-8.661245276904108
430.10033444816054,-0.395934962389941
431.10367892976586,5.297717032527388
432.10702341137124,-8.130290560894423
433.11036789297657,2.7802180166307906
434.11371237458195,13.07694474348962
435.1170568561873,0.0018948941654534828
436.12040133779266,5.050693905914816
437.123745819398,-1.9806484508398945
438.12709030100336,-2.7479845767721596
439.1304347826087,-2.5511537656183165
440.13377926421407,-4.673310858277176
441.1371237458194,8.234115152828885
442.1404682274248,-2.2842576567662656
443.1438127090301,-4.885928161155187
444.1471571906354,-5.557713653872618
445.1505016722408,13.620707689278404
446.15384615384613,3.0685184384670956
447.1571906354515,-2.221505064975997
448.16053511705684,0.9858113634370212
449.1638795986622,-0.05641182492239719
450.16722408026754,7.490186062956854
451.1705685618729,-7.074671734051732
452.17391304347825,-2.9244827742037973
453.17725752508363,6.386053580767045
454.18060200668896,-5.9601473113197665
455.18394648829434,-5.760707835398116
456.18729096989966,0.6930718493851934
457.19063545150505,2.770941487272649
458.19397993311037,6.803448303247603
459.1973244147157,10.87426781718947
460.2006688963211,3.674417163028361
461.2040133779264,0.26666204494224865
462.2073578595318,-4.729433583411912
463.2107023411371,5.159808181959751
464.2140468227425,-0.4314612082055985
465.2173913043478,5.922897788686044
466.2207357859532,2.9755563376541083
467.2240802675585,-4.388708342316239
468.2274247491639,5.319399923544697
469.2307692307692,1.377805074353065
470.23411371237455,4.178199036087002
471.23745819397993,-7.998702397511343
472.2408026755853,0.9973809978459364
473.24414715719064,-2.042987524769497
474.24749163879596,1.3636733406391723
475.25083612040135,4.026977316868769
476.25418060200667,5.705406096077372
477.25752508361205,4.386829884939533
478.2608695652174,-5.688839365772276
479.26421404682276,4.0422876526407086
480.2675585284281,-2.5277007629901633
481.27090301003346,6.405542199784207
482.2742474916388,9.374754506778007
483.27759197324417,6.248988324932906
484.2809364548495,-10.032739920350334
485.2842809364548,3.978689608695275
486.2876254180602,-0.9305652741808588
487.2909698996656,-6.211544481736058
488.2943143812709,6.9221929579351675
489.29765886287623,5.708998238297638
490.3010033444816,0.41933286839523876
491.30434782608694,-4.327956462806187
492.3076923076923,2.22276139844888
493.31103678929765,-1.4399843811940907
494.314381270903,-1.1448475492667125
495.31772575250835,7.485009933728328
496.3210702341137,3.3566972463943494
497.32441471571906,-3.650164952669038
498.32775919732444,3.591154020039939
499.33110367892976,4.072081857887636
500.3344481605351,7.866780607449724
501.33779264214047,-4.8218510596430075
502.34113712374585,5.552420961633741
503.3444816053512,1.577134134299562
504.3478260869565,11.063380592536442
505.3511705685619,-1.7864405573487117
506.3545150501672,-9.882709149577522
507.3578595317726,-0.12066983873244638
508.3612040133779,-4.919057735855034
509.3645484949833,6.02625082898712
510.3678929765886,8.249411288213
511.37123745819395,-5.832122720872188
512.3745819397993,-3.170437862311774
513.3779264214047,-1.4633648928612508
514.3812709030101,-0.009417910594015089
515.3846153846154,5.6753165332114355
516.3879598662207,-2.4785789387911255
517.3913043478261,-0.9724969852648144
518.3946488294314,-2.1895276488799653
519.3979933110368,-0.4967279892824264
520.4013377926422,4.999702703337471
521.4046822742475,-4.790354906708606
522.4080267558528,-6.675355712554943
523.4113712374582,-14.029051232761217
524.4147157190636,-2.144207924507831
525.4180602006688,6.747440027426483
526.4214046822742,3.2697908428362013
527.4247491638796,9.239846867922468
528.428093645485,3.7244060089276805
529.4314381270904,-6.3083862037118195
530.4347826086956,0.19999272514788458
531.438127090301,5.3222913227660325
532.4414715719064,-0.645296295916074
533.4448160535117,1.0471192586864233
534.448160535117,4.363263842236351
535.4515050167224,-0.30861521429300365
536.4548494983278,0.47924172750852945
537.4581939799331,2.6340892485220904
538.4615384615385,2.814170022367211
539.4648829431438,5.667624128458931
540.4682274247491,-2.2221492538976313
541.4715719063545,11.2995824183365
542.4749163879599,4.02686912074695
543.4782608695652,-0.2457704004391248
544.4816053511706,6.007356775964491
545.4849498327759,8.537768687635964
546.4882943143813,8.91247579604605
547.4916387959867,10.800904749564742
548.4949832775919,2.992745979798105
549.4983277591973,14.1505426599556
550.5016722408027,15.313038794872206
551.5050167224081,18.038017659282495
552.5083612040133,14.459614735510616
553.5117056856187,0.4739490458324198
554.5150501672241,19.282518342717193
555.5183946488294,21.41504311380359
556.5217391304348,15.729835757554415
557.5250836120401,25.037638824636744
558.5284280936455,28.723137535000582
559.5317725752509,20.099146389781602
560.5351170568562,29.208841907516074
561.5384615384615,37.99288208924844
562.5418060200669,49.57876919965466
563.5451505016722,39.14405341785831
564.5484949832776,43.882904263904884
565.551839464883,55.56028740438124
566.5551839464883,51.503690753406225
567.5585284280936,59.553224549340406
568.561872909699,53.723207862561125
569.5652173913044,67.50960388167316
570.5685618729096,70.10080861040002
571.571906354515,83.57587924340326
572.5752508361204,85.43520215699586
573.5785953177258,93.42069635812487
574.5819397993312,101.73028612920956
575.5852842809364,97.61271451245003
576.5886287625418,105.5058395884614
577.5919732441472,118.2736826763999
578.5953177257525,125.81393988625135
579.5986622073578,134.77389307961
580.6020066889632,137.54119967620855
581.6053511705686,154.74678904024043
582.6086956521739,149.69845159913496
583.6120401337793,158.68914634911317
584.6153846153846,164.41462889911708
585.6187290969899,182.04801774966538
586.6220735785953,192.60442766931882
587.6254180602007,201.0424845927083
588.628762541806,208.9313997807958
589.6321070234114,211.6865481931241
590.6354515050167,231.89169538388475
591.6387959866221,237.37145213313144
592.6421404682274,242.6767947156617
593.6454849498327,250.7418285911869
594.6488294314381,251.72704251073876
595.6521739130435,270.8462683026714
596.6555183946489,271.2081477007318
597.6588628762541,288.5046002768556
598.6622073578595,282.1805112153932
599.6655518394649,293.3404809627986
600.6688963210702,295.82134942236615
601.6722408026756,301.7255790881502
602.6755852842809,312.79281874436793
603.6789297658863,316.18248895794136
604.6822742474917,327.05718501217723
605.685618729097,327.97589855554884
606.6889632107024,328.7683551257375
607.6923076923076,324.81200227538307
608.695652173913,334.74076028102564
609.6989966555184,332.5835255900427
610.7023411371238,338.479466352744
611.7056856187291,324.02583461749555
612.7090301003344,334.99268674063046
613.7123745819398,337.21444279959655
614.7157190635452,333.49420482901974
615.7190635451504,332.7671641396972
616.7224080267558,323.21277883785285
617.7257525083612,328.4986302162159
618.7290969899666,324.85421773917113
619.732441471572,327.2676090920755
620.7357859531772,313.96602816644787
621.7391304347826,310.9107507384853
622.7424749163879,305.1810483032051
623.7458193979933,296.0980427546063
624.7491638795987,281.452780847895
625.752508361204,285.3395687227126
626.7558528428094,271.47781455736947
627.7591973244147,260.95776151109703
628.7625418060201,253.17775558101135
629.7658862876254,259.964314629151
630.7692307692307,227.8291086116058
631.7725752508361,231.39409666101616
632.7759197324415,227.5845444179843
633.7792642140469,214.76877310135933
634.7826086956522,209.2537549863865
635.7859531772575,205.64387532413025
636.7892976588629,181.6859154576494
637.7926421404682,177.3087109651751
638.7959866220735,170.7013242416444
639.7993311036789,162.85192379725171
640.8026755852843,154.2335970087317
641.8060200668897,150.3768853531311
642.809364548495,140.10833181980385
643.8127090301003,130.367948356109
644.8160535117057,124.73822868835475
645.819397993311,121.24174924201057
646.8227424749164,103.99715078812415
647.8260869565217,98.41719669688696
648.8294314381271,98.98450788642755
649.8327759197324,78.44649959854512
650.8361204013378,89.50745027868314
651.8394648829432,77.17209303651711
652.8428093645484,66.76460094231095
653.8461538461538,61.20160006328615
654.8494983277592,56.01167845611096
655.8528428093646,55.357269602780015
656.85618729097,53.49330515306028
657.8595317725752,47.889894220431486
658.8628762541806,47.176130788986434
659.8662207357859,44.287156649632585
660.8695652173913,33.85759125451407
661.8729096989966,43.022504987268974
662.876254180602,25.772666787784
663.8795986622074,25.123324162068357
664.8829431438128,19.646040044173304
665.886287625418,24.693097338944913
666.8896321070234,14.06531733410127
667.8929765886287,24.145078277889866
668.8963210702341,20.185711881709917
669.8996655518395,16.51351916143269
670.9030100334448,10.183680130040113
671.9063545150502,5.683408088653183
672.9096989966555,14.40326536936829
673.9130434782609,14.280564752356858
674.9163879598661,4.825975333436396
675.9197324414715,9.821435290934671
676.9230769230769,13.36617211306408
677.9264214046823,15.143909015810852
678.9297658862877,-3.8960202079726125
679.933110367893,6.341539916727319
680.9364548494983,0.047583153593161676
681.9397993311037,5.028522544834297
682.943143812709,-0.1453798512774398
683.9464882943143,-0.31805903139853653
684.9498327759197,9.25734077097305
685.9531772575251,5.657333189451553
686.9565217391305,-5.0887020568254
687.9598662207358,4.548559617933487
688.9632107023411,-7.677276026462288
689.9665551839464,-2.2510205704059323
690.9698996655518,-2.697321095008186
691.9732441471572,5.160485767988537
692.9765886287626,0.8236282618936503
693.9799331103679,-2.28668913713816
694.9832775919733,4.202676757012723
695.9866220735786,-1.9159111355200311
696.989966555184,3.116098542099648
697.9933110367892,6.355412231424612
698.9966555183946,5.437188254768964
700.0,6.271333637544568
