Wavelength (nm),Intensity (a.u.)
400.0,-10.620006761276105
401.0033444816053,3.8973412371637712
402.0066889632107,-4.293394500937894
403.01003344481603,-3.6129198023015374
404.0133779264214,-4.821043249034904
405.01672240802674,-6.758883451460108
406.0200668896321,-12.972434702121017
407.02341137123744,-4.123079237158755
408.0267558528428,-1.2775090775438909
409.03010033444815,0.5367593394336622
410.03344481605353,-3.3703025467434142
411.03678929765886,-0.2729857450845198
412.04013377926424,7.730794605088168
413.04347826086956,-3.6325013840003306
414.0468227424749,-5.598023229025505
415.05016722408027,-2.4041517377737938
416.0535117056856,-8.09592301243643
417.056856187291,-1.0556331237600285
418.0602006688963,-2.112342709958153
419.0635451505017,-4.5474560290952555
420.066889632107,0.1378241807850637
421.0702341137124,-5.884363573915999
422.0735785953177,2.134487915788924
423.0769230769231,2.1930658651766852
424.0802675585284,11.090909013591412
425.0836120401338,2.419662490911173
426.0869565217391,-1.625955221910747
427.0903010033445,-1.76463686960106
428.09364548494983,7.899710213269217
429.09698996655516,2.826694952025255
430.10033444816054,-9.925071730349575
431.10367892976586,7.024680099387526
432.10702341137124,-0.2329551101571289
433.11036789297657,1.6779246455139374
434.11371237458195,-0.32709779274735884
435.1170568561873,-3.671149791414205
436.12040133779266,8.911286561840717
437.123745819398,2.4393006199073985
438.12709030100336,12.950936239234464
439.1304347826087,-4.52428255145487
440.13377926421407,-2.7217564184857723
441.1371237458194,3.791970298191342
442.1404682274248,3.303818666294318
443.1438127090301,10.767132574712122
444.1471571906354,1.346728113658397
445.1505016722408,5.970166023695176
446.15384615384613,11.835167380057234
447.1571906354515,18.029062596551373
448.16053511705684,10.274946738500166
449.1638795986622,7.2334602110382935
450.16722408026754,1.9076327778907487
451.1705685618729,7.045485068124253
452.17391304347825,12.524346425193555
453.17725752508363,13.839120008534675
454.18060200668896,18.731686130118486
455.18394648829434,9.199922784984548
456.18729096989966,16.963083293185583
457.19063545150505,22.91634808977836
458.19397993311037,22.074715655185013
459.1973244147157,27.793336638573397
460.2006688963211,34.23147179515351
461.2040133779264,34.637076208695596
462.2073578595318,34.247573294112875
463.2107023411371,36.82191831352307
464.2140468227425,42.05546062998188
465.2173913043478,42.93061801969279
466.2207357859532,45.09509522533588
467.2240802675585,46.20778007431154
468.2274247491639,48.36291406691767
469.2307692307692,68.4694336424089
470.23411371237455,58.679129289900274
471.23745819397993,74.75041566594166
472.2408026755853,84.98500114661151
473.24414715719064,77.24240201687698
474.24749163879596,90.68520889460095
475.25083612040135,88.86833249946336
476.25418060200667,97.57450103532338
477.25752508361205,114.21417310261377
478.2608695652174,113.92786510850371
479.26421404682276,118.07301908850276
480.2675585284281,118.39770366647582
481.27090301003346,136.54889153144578
482.2742474916388,141.58101609251233
483.27759197324417,160.82648204237222
484.2809364548495,156.75412616079154
485.2842809364548,164.54571137941033
486.2876254180602,170.47481082741228
487.2909698996656,186.02020129788468
488.2943143812709,185.24705210786848
489.29765886287623,191.84031876313807
490.3010033444816,200.56205649858808
491.30434782608694,207.99683664571054
492.3076923076923,217.90681636950043
493.31103678929765,220.00861011651202
494.314381270903,228.38496332642202
495.31772575250835,241.25600930690928
496.3210702341137,239.44151963776432
497.32441471571906,252.366501530852
498.32775919732444,250.28043679181434
499.33110367892976,260.9554450081925
500.3344481605351,259.0558693629516
501.33779264214047,274.13111911261024
502.34113712374585,266.9246265228631
503.3444816053512,268.8799472574915
504.3478260869565,262.78479660487255
505.3511705685619,282.21611464387894
506.3545150501672,272.3318178122754
507.3578595317726,278.9210137195458
508.3612040133779,282.90342248970387
509.3645484949833,277.99816248838926
510.3678929765886,280.4076711317222
511.37123745819395,281.2700191661936
512.3745819397993,281.5300088566126
513.3779264214047,278.5760318902281
514.3812709030101,261.4085481956821
515.3846153846154,261.82995979353575
516.3879598662207,275.11390739965435
517.3913043478261,264.2471588350728
518.3946488294314,257.5415121224476
519.3979933110368,250.108587522136
520.4013377926422,241.61447922265754
521.4046822742475,245.0447410153896
522.4080267558528,222.44670958785264
523.4113712374582,230.86098110593974
524.4147157190636,217.928185574526
525.4180602006688,204.86101235778276
526.4214046822742,211.55420714227017
527.4247491638796,194.0857981165435
528.428093645485,192.76926666960952
529.4314381270904,176.7563286854664
530.4347826086956,187.7806282016736
531.438127090301,176.11970063401307
532.4414715719064,158.35914445665065
533.4448160535117,153.73553826329848
534.448160535117,143.86231294329332
535.4515050167224,144.3656865086828
536.4548494983278,131.3965000022617
537.4581939799331,125.10575518481325
538.4615384615385,107.5219823417968
539.4648829431438,103.51431167925043
540.4682274247491,105.07856082817203
541.4715719063545,101.75307365572071
542.4749163879599,96.44933048086746
543.4782608695652,80.58163555046671
544.4816053511706,78.10302562172257
545.4849498327759,79.15537853451556
546.4882943143813,73.89201250098073
547.4916387959867,66.40679819333359
548.4949832775919,59.05979199610662
549.4983277591973,56.62179123943593
550.5016722408027,50.62932865321737
551.5050167224081,51.859487601069574
552.5083612040133,45.84277368115315
553.5117056856187,45.490895249000104
554.5150501672241,27.439725997692005
555.5183946488294,37.19922955752386
556.5217391304348,30.77436284474778
557.5250836120401,33.338718936224566
558.5284280936455,31.286470345220806
559.5317725752509,19.273204269365323
560.5351170568562,24.7804442352004
561.5384615384615,24.76080569474227
562.5418060200669,27.025272978314927
563.5451505016722,15.85684570700272
564.5484949832776,21.34055403736101
565.551839464883,8.186360963882159
566.5551839464883,5.212663448663727
567.5585284280936,9.543326435267439
568.561872909699,13.554324675208182
569.5652173913044,9.565465405954923
570.5685618729096,13.007357209297655
571.571906354515,3.029105508767584
572.5752508361204,18.44560258469381
573.5785953177258,6.757888588773783
574.5819397993312,4.771435035210597
575.5852842809364,5.051458885159543
576.5886287625418,6.123609671820136
577.5919732441472,5.737962199572619
578.5953177257525,1.0842845826746568
579.5986622073578,-3.757756492499195
580.6020066889632,-2.1263644607937238
581.6053511705686,1.5694590368041765
582.6086956521739,8.616217015956227
583.6120401337793,1.7840271012366953
584.6153846153846,-2.4783328281881047
585.6187290969899,-0.42770840004849164
586.6220735785953,5.879440118355459
587.6254180602007,6.923756113501773
588.628762541806,-9.629349495373917
589.6321070234114,6.928595126379942
590.6354515050167,6.210258241123473
591.6387959866221,-1.914337258203832
592.6421404682274,8.726924776434934
593.6454849498327,0.8190567816293985
594.6488294314381,-3.8153751631906303
595.6521739130435,-1.1213342024445234
596.6555183946489,-3.3715846781444445
597.6588628762541,6.57807547680285
598.6622073578595,4.970715362754541
599.6655518394649,-1.59332165798308
600.6688963210702,8.730400675359494
601.6722408026756,9.75755356915283
602.6755852842809,8.598912597897737
603.6789297658863,-3.202935137265941
604.6822742474917,-8.825220050100723
605.685618729097,3.7559306531109167
606.6889632107024,-10.608525338220874
607.6923076923076,0.033430292576292056
608.695652173913,0.11301642126737876
609.6989966555184,5.763616315594971
610.7023411371238,0.5542926430365374
611.7056856187291,-3.7139960612389484
612.7090301003344,-3.569929593149107
613.7123745819398,1.0135563729562582
614.7157190635452,-5.071102628179626
615.7190635451504,-0.683512342683222
616.7224080267558,-10.46777411396556
617.7257525083612,-3.717834584365095
618.7290969899666,0.08324436511008738
619.732441471572,-2.4450969263198523
620.7357859531772,-9.693784189900665
621.7391304347826,-6.694872374303622
622.7424749163879,-3.469913139252148
623.7458193979933,-2.7268918175059325
624.7491638795987,5.173921150517651
625.752508361204,0.8818831773574458
626.7558528428094,-0.0890201842616642
627.7591973244147,-5.835723029576749
628.7625418060201,-3.7275343008050306
629.7658862876254,-8.329046194574337
630.7692307692307,-9.60480343931518
631.7725752508361,6.449907204781241
632.7759197324415,1.1663917319122268
633.7792642140469,-1.74252824935181
634.7826086956522,8.851771357871362
635.7859531772575,3.9969374895465943
636.7892976588629,0.03280663647353258
637.7926421404682,-2.800306273911911
638.7959866220735,-3.625457535673606
639.7993311036789,0.06345568382096489
640.8026755852843,7.74828899852391
641.8060200668897,11.24849803057031
642.809364548495,-1.364021016995232
643.8127090301003,4.643341528698174
644.8160535117057,-4.665450378750802
645.819397993311,2.301839672880495
646.8227424749164,3.387296246997478
647.8260869565217,-0.9118219562415625
648.8294314381271,-1.1388829738728827
649.8327759197324,4.378282700361295
650.8361204013378,1.131625704969357
651.8394648829432,-9.002500105498726
652.8428093645484,-3.0740602174395817
653.8461538461538,-3.363644457938655
654.8494983277592,-6.338636269380478
655.8528428093646,1.0293317951022927
656.85618729097,-4.627004941918549
657.8595317725752,6.009220558862165
658.8628762541806,-0.15225957010344685
659.8662207357859,-1.533712360062164
660.8695652173913,8.953716288000724
661.8729096989966,-0.3317174968829889
662.876254180602,-3.9953776196094553
663.8795986622074,6.65004630032228
664.8829431438128,-2.8031679823885214
665.886287625418,-4.887427302576315
666.8896321070234,0.1287162012669859
667.8929765886287,-2.8728922345102452
668.8963210702341,6.507689346993496
669.8996655518395,6.302780612765342
670.9030100334448,1.7627385465652703
671.9063545150502,4.038745730636546
672.9096989966555,3.538571265264599
673.9130434782609,4.648820868042313
674.9163879598661,-1.08947233624322
675.9197324414715,2.1667020730905464
676.9230769230769,3.84607016131357
677.9264214046823,-6.463972964699107
678.9297658862877,8.20655460674211
679.933110367893,-0.9620965406444152
680.9364548494983,-1.869858015586158
681.9397993311037,5.608767709404152
682.943143812709,6.001068553156435
683.9464882943143,0.8660009448546756
684.9498327759197,-7.054709574950212
685.9531772575251,0.649516622786572
686.9565217391305,5.49800298644895
687.9598662207358,-2.6085429144312964
688.9632107023411,-1.114420301593084
689.9665551839464,6.3258551732741815
690.9698996655518,3.8332559471701524
691.9732441471572,11.631244450211938
692.9765886287626,7.402008404703601
693.9799331103679,1.2313240103572096
694.9832775919733,7.9695876893102655
695.9866220735786,4.149440725509269
696.989966555184,-4.755202646846302
697.9933110367892,-7.520827087116654
698.9966555183946,5.750876476043852
700.0,1.6219298549720833
