Wavelength (nm),Intensity (a.u.)
400.0,-4.127257824488388
401.0033444816053,-1.5891210255832149
402.0066889632107,-1.6014233532736486
403.01003344481603,10.321336028028963
404.0133779264214,5.22481996222083
405.01672240802674,5.550662827921321
406.0200668896321,2.0539445015731905
407.02341137123744,3.7582820300439743
408.0267558528428,8.583355705640262
409.03010033444815,-0.8749135411531805
410.03344481605353,-0.12233739706058053
411.03678929765886,-2.04309513665132
412.04013377926424,-0.12089276860921574
413.04347826086956,0.2640834421031858
414.0468227424749,6.539480367291823
415.05016722408027,-4.528572656671608
416.0535117056856,7.351036703822635
417.056856187291,-8.685781624872504
418.0602006688963,4.332790360231495
419.0635451505017,-1.1816962418947161
420.066889632107,1.9547012629791265
421.0702341137124,-4.803369762628837
422.0735785953177,-0.27375572025046274
423.0769230769231,1.11798177187099
424.0802675585284,3.252225453146937
425.0836120401338,6.926504213200135
426.0869565217391,-1.7935550484110343
427.0903010033445,6.962713052964533
428.09364548494983,8.222893334821533
429.09698996655516,-0.27938570983503547
430.10033444816054,1.578870678118558
431.10367892976586,-3.5741998820203515
432.10702341137124,-4.228114001074389
433.11036789297657,3.791128531610568
434.11371237458195,4.10078896702015
435.1170568561873,2.0298954953379442
436.12040133779266,-1.6798781126867302
437.123745819398,-11.056971531892822
438.12709030100336,1.0429047694703362
439.1304347826087,5.8073696149124725
440.13377926421407,-0.7035664962351484
441.1371237458194,-4.41670845049407
442.1404682274248,7.02604811683435
443.1438127090301,-5.964624087492333
444.1471571906354,-3.9650401714583796
445.1505016722408,-5.092893799954284
446.15384615384613,10.55685304953479
447.1571906354515,-1.0005878183009118
448.16053511705684,6.246092862245018
449.1638795986622,0.37224506814410097
450.16722408026754,2.3812402331195623
451.1705685618729,6.486918400829771
452.17391304347825,-1.5289659300030287
453.17725752508363,5.626955500997474
454.18060200668896,-1.9912546875394417
455.18394648829434,-5.124640085881934
456.18729096989966,3.5957246844730903
457.19063545150505,1.1154373844612113
458.19397993311037,-1.5719295122438968
459.1973244147157,2.880891280730804
460.2006688963211,0.6379038155868083
461.2040133779264,8.404962612024084
462.2073578595318,2.2917161115410107
463.2107023411371,4.038670788210686
464.2140468227425,-3.9678483211569486
465.2173913043478,1.8877824858384433
466.2207357859532,5.430992524724965
467.2240802675585,3.5057930923853116
468.2274247491639,-2.486932226191563
469.2307692307692,-4.177549674228768
470.23411371237455,0.4167446098413614
471.23745819397993,5.642838469452826
472.2408026755853,6.691518152019313
473.24414715719064,2.570023421703149
474.24749163879596,-8.125772161727598
475.25083612040135,7.568949020877804
476.25418060200667,6.769057323426514
477.25752508361205,4.874924409942387
478.2608695652174,12.825782719446963
479.26421404682276,14.41593954137094
480.2675585284281,5.2355164540021955
481.27090301003346,18.156081368417336
482.2742474916388,10.545782783934882
483.27759197324417,18.745473290407343
484.2809364548495,17.770240131027936
485.2842809364548,23.266587094310793
486.2876254180602,22.40620744717628
487.2909698996656,22.154766243787687
488.2943143812709,29.561887382570948
489.29765886287623,42.88024491623068
490.3010033444816,42.299298624865386
491.30434782608694,47.58944855649148
492.3076923076923,56.89020779813147
493.31103678929765,51.91305385391922
494.314381270903,68.04818402299544
495.31772575250835,70.65352411053716
496.3210702341137,87.14966396111367
497.32441471571906,94.17007485152587
498.32775919732444,100.08612905025296
499.33110367892976,112.11933177476979
500.3344481605351,130.79211593796282
501.33779264214047,130.80356114936717
502.34113712374585,133.48966237742675
503.3444816053512,146.6754733214129
504.3478260869565,155.14460054317004
505.3511705685619,174.39125862795981
506.3545150501672,180.54611392013402
507.3578595317726,187.42261050313576
508.3612040133779,196.65940543008833
509.3645484949833,216.36881861388804
510.3678929765886,213.92503437589193
511.37123745819395,222.87018714192064
512.3745819397993,232.86156753106502
513.3779264214047,243.9583484008328
514.3812709030101,245.6112524702279
515.3846153846154,253.61125901864438
516.3879598662207,246.77457195182123
517.3913043478261,262.04977032709115
518.3946488294314,259.0961924643987
519.3979933110368,256.22437664540064
520.4013377926422,250.4150873792771
521.4046822742475,249.1806319416815
522.4080267558528,244.59587138608757
523.4113712374582,249.43128982297097
524.4147157190636,241.34273928293484
525.4180602006688,240.12393263438847
526.4214046822742,225.85788823683322
527.4247491638796,227.71873563828856
528.428093645485,212.6083720675741
529.4314381270904,212.37519578872866
530.4347826086956,204.1573994607958
531.438127090301,188.28235873741207
532.4414715719064,173.37966332090767
533.4448160535117,172.0801925976238
534.448160535117,153.95934233125809
535.4515050167224,154.20529786993876
536.4548494983278,134.36994532345216
537.4581939799331,134.6271570526653
538.4615384615385,117.17854253036509
539.4648829431438,109.7226056707691
540.4682274247491,109.40088307528785
541.4715719063545,95.31147999642661
542.4749163879599,79.29394116136413
543.4782608695652,73.46612126911897
544.4816053511706,72.0646200275153
545.4849498327759,67.89545199199877
546.4882943143813,62.37528703246862
547.4916387959867,47.76656449152413
548.4949832775919,50.81416413980163
549.4983277591973,36.89349449524209
550.5016722408027,37.44924182157311
551.5050167224081,28.004824479679613
552.5083612040133,20.491931901580564
553.5117056856187,23.50530111112538
554.5150501672241,17.49916058380649
555.5183946488294,12.296497553388921
556.5217391304348,17.55028652863698
557.5250836120401,9.376828485016711
558.5284280936455,17.512506390316613
559.5317725752509,9.971934716460467
560.5351170568562,15.161681237761607
561.5384615384615,5.485916601461222
562.5418060200669,-0.31259436165045873
563.5451505016722,10.18113321191547
564.5484949832776,4.1315619636019845
565.551839464883,3.947275286690523
566.5551839464883,-1.6330624669098928
567.5585284280936,3.7812795360218896
568.561872909699,-5.468269150664006
569.5652173913044,1.9386233572500309
570.5685618729096,7.545651489089389
571.571906354515,0.022334335263912153
572.5752508361204,-7.400257998082251
573.5785953177258,-6.8224122154873905
574.5819397993312,-0.24566511045394684
575.5852842809364,-2.229438357236767
576.5886287625418,-2.0737231669035108
577.5919732441472,-0.756613576300319
578.5953177257525,5.498239787564257
579.5986622073578,1.6085851532289357
580.6020066889632,1.4070436082383626
581.6053511705686,-7.483837866331169
582.6086956521739,-3.166082236381233
583.6120401337793,-2.7842021779030226
584.6153846153846,1.7926049214352773
585.6187290969899,2.5439103166044332
586.6220735785953,0.1280209490768806
587.6254180602007,-0.48999352918921996
588.628762541806,-0.43050931853707297
589.6321070234114,-3.626450710782578
590.6354515050167,3.2154695579471118
591.6387959866221,-1.0765376876993968
592.6421404682274,-4.411136305632508
593.6454849498327,-3.76426089861861
594.6488294314381,1.1431265015791625
595.6521739130435,0.11738330698151596
596.6555183946489,0.627490300828788
597.6588628762541,-1.6068767961976362
598.6622073578595,-10.307853655504085
599.6655518394649,5.681715092003978
600.6688963210702,2.5389024565812552
601.6722408026756,1.792919770229187
602.6755852842809,5.521150149670968
603.6789297658863,0.7651361929192658
604.6822742474917,-6.159270528382728
605.685618729097,2.865052092223738
606.6889632107024,10.702456973563267
607.6923076923076,-0.30864955408520994
608.695652173913,-2.0136017287801837
609.6989966555184,-0.8146056210308784
610.7023411371238,-2.7113786412144387
611.7056856187291,0.35793451458222264
612.7090301003344,-5.996877168438364
613.7123745819398,2.4912496402019046
614.7157190635452,-1.5912115085158656
615.7190635451504,12.065093927160744
616.7224080267558,-5.00519946764654
617.7257525083612,13.684280249112927
618.7290969899666,-6.321472814760387
619.732441471572,8.629261512000042
620.7357859531772,-0.2185177384383801
621.7391304347826,-1.4448750055508133
622.7424749163879,2.3472562517576834
623.7458193979933,1.8379436495024994
624.7491638795987,9.866471244872997
625.752508361204,5.650231941927631
626.7558528428094,3.4121326760460975
627.7591973244147,4.232602924402768
628.7625418060201,-4.88839398634041
629.7658862876254,-2.740270612966521
630.7692307692307,-0.6944002892122831
631.7725752508361,5.391614677079799
632.7759197324415,-5.4170893521015655
633.7792642140469,-1.0690020629022248
634.7826086956522,3.975321874088655
635.7859531772575,-3.923361879412214
636.7892976588629,0.7503418030162673
637.7926421404682,-1.8824300750811296
638.7959866220735,2.100035856036013
639.7993311036789,7.2562155145550085
640.8026755852843,-3.8923238567550618
641.8060200668897,7.612866204413889
642.809364548495,-3.994411112928378
643.8127090301003,4.129748030308615
644.8160535117057,-4.008863767437337
645.819397993311,-5.157672245854421
646.8227424749164,-4.574450056863203
647.8260869565217,-8.301452919075384
648.8294314381271,-7.387961874204164
649.8327759197324,14.725688268490346
650.8361204013378,2.4951108864118456
651.8394648829432,4.711717267669075
652.8428093645484,7.43648884544525
653.8461538461538,-0.5606601280296808
654.8494983277592,-5.347520342149455
655.8528428093646,4.522127173406645
656.85618729097,-5.788365921727701
657.8595317725752,-1.1983449868406801
658.8628762541806,-8.881636357062828
659.8662207357859,7.240034073483227
660.8695652173913,-4.818478831761616
661.8729096989966,-4.291354848455845
662.876254180602,-1.5363132466079565
663.8795986622074,-2.5790967224863817
664.8829431438128,-3.2147994029617335
665.886287625418,1.5361652291027963
666.8896321070234,-2.706698417040327
667.8929765886287,-0.7853960045129526
668.8963210702341,-0.046227260191072095
669.8996655518395,-8.622655851567323
670.9030100334448,8.421309805216326
671.9063545150502,-10.749333601835806
672.9096989966555,-5.571964384631297
673.9130434782609,3.3727638848626795
674.9163879598661,0.2132272549433786
675.9197324414715,-1.0923826921737014
676.9230769230769,3.2140823207524654
677.9264214046823,-7.308762238368405
678.9297658862877,0.6382032826660331
679.933110367893,9.548067850086971
680.9364548494983,2.9568781090047107
681.9397993311037,7.715523597473103
682.943143812709,3.794528372989667
683.9464882943143,8.17739130401836
684.9498327759197,1.9210280844700351
685.9531772575251,1.4922758130329796
686.9565217391305,7.418027346712846
687.9598662207358,-2.546440268026495
688.9632107023411,4.008665183645471
689.9665551839464,1.2782758502366207
690.9698996655518,-4.634725685173304
691.9732441471572,-1.6428092930079807
692.9765886287626,-1.326694978028038
693.9799331103679,1.2887878844667284
694.9832775919733,7.250227458171546
695.9866220735786,-4.216782356352581
696.989966555184,4.7199395492544935
697.9933110367892,0.6179517474661784
698.9966555183946,-1.3092874898360596
700.0,-0.21519999052780853
